Frequency (Hz)	Level (dB)
43.066406	-106.285042
86.132812	-106.135468
129.199219	-105.890617
172.265625	-105.552628
215.332031	-105.132675
258.398438	-104.640793
301.464844	-104.081940
344.531250	-103.463409
387.597656	-102.793846
430.664062	-102.063950
473.730469	-101.307709
516.796875	-100.501312
559.863281	-99.654739
602.929688	-98.767342
645.996094	-97.838409
689.062500	-96.870491
732.128906	-95.857933
775.195312	-94.800331
818.261719	-93.694099
861.328125	-92.536713
904.394531	-91.322319
947.460938	-90.047264
990.527344	-88.704300
1033.593750	-87.286034
1076.660156	-85.784927
1119.726562	-84.190895
1162.792969	-82.490555
1205.859375	-80.670128
1248.925781	-78.710922
1291.992188	-76.589844
1335.058594	-74.278198
1378.125000	-71.737953
1421.191406	-68.918861
1464.257812	-65.751801
1507.324219	-62.137432
1550.390625	-57.926311
1593.457031	-52.876488
1636.523438	-46.553268
1679.589844	-38.030117
1722.656250	-24.468779
1765.722656	-1.756701
1808.789062	1.714063
1851.855469	-7.128138
1894.921875	-31.063440
1937.988281	-41.933365
1981.054688	-49.404881
2024.121094	-55.153446
2067.187500	-59.840649
2110.253906	-63.803387
2153.320312	-67.238533
2196.386719	-70.271545
2239.453125	-72.987503
2282.519531	-75.447052
2325.585938	-77.694908
2368.652344	-79.764610
2411.718750	-81.682930
2454.785156	-83.469856
2497.851562	-85.144043
2540.917969	-86.716293
2583.984375	-88.201324
2627.050781	-89.606163
2670.117188	-90.940102
2713.183594	-92.209587
2756.250000	-93.420341
2799.316406	-94.578377
2842.382812	-95.687027
2885.449219	-96.749947
2928.515625	-97.770882
2971.582031	-98.754951
3014.648438	-99.700531
3057.714844	-100.611015
3100.781250	-101.490875
3143.847656	-102.339294
3186.914062	-103.144661
3229.980469	-103.937912
3273.046875	-104.695938
3316.113281	-105.420761
3359.179688	-106.110764
3402.246094	-106.769577
3445.312500	-107.388924
3488.378906	-107.962036
3531.445312	-108.491760
3574.511719	-108.963730
3617.578125	-109.371010
3660.644531	-109.709320
3703.710938	-109.959618
3746.777344	-110.116196
3789.843750	-110.172081
3832.910156	-110.122086
3875.976562	-109.967140
3919.042969	-109.693993
3962.109375	-109.322289
4005.175781	-108.848679
4048.242188	-108.288551
4091.308594	-107.646400
4134.375000	-106.926964
4177.441406	-106.141724
4220.507812	-105.293457
4263.574219	-104.388802
4306.640625	-103.428818
4349.707031	-102.414551
4392.773438	-101.346603
4435.839844	-100.222916
4478.906250	-99.042007
4521.972656	-97.799088
4565.039062	-96.490952
4608.105469	-95.111290
4651.171875	-93.651672
4694.238281	-92.105103
4737.304688	-90.457939
4780.371094	-88.700554
4823.437500	-86.814812
4866.503906	-84.781708
4909.570312	-82.575661
4952.636719	-80.164711
4995.703125	-77.506424
5038.769531	-74.543709
5081.835938	-71.196945
5124.902344	-67.349754
5167.968750	-62.821823
5211.035156	-57.310535
5254.101562	-50.239536
5297.167969	-40.237957
5340.234375	-21.404741
5383.300781	-9.590561
5426.367188	-10.892253
5469.433594	-27.449533
5512.500000	-42.866043
5555.566406	-51.993618
5598.632812	-58.633789
5641.699219	-63.882858
5684.765625	-68.232513
5727.832031	-71.949677
5770.898438	-75.196800
5813.964844	-78.080376
5857.031250	-80.673996
5900.097656	-83.030800
5943.164062	-85.190956
5986.230469	-87.184464
6029.296875	-89.035744
6072.363281	-90.763733
6115.429688	-92.382774
6158.496094	-93.906929
6201.562500	-95.346481
6244.628906	-96.709999
6287.695312	-98.005798
6330.761719	-99.239113
6373.828125	-100.417084
6416.894531	-101.543480
6459.960938	-102.621941
6503.027344	-103.659760
6546.093750	-104.654808
6589.160156	-105.613091
6632.226562	-106.538383
6675.292969	-107.431534
6718.359375	-108.294647
6761.425781	-109.123779
6804.492188	-109.937309
6847.558594	-110.720406
6890.625000	-111.483566
6933.691406	-112.220482
6976.757812	-112.936859
7019.824219	-113.636597
7062.890625	-114.317383
7105.957031	-114.977333
7149.023438	-115.620102
7192.089844	-116.248932
7235.156250	-116.859238
7278.222656	-117.450882
7321.289062	-118.043983
7364.355469	-118.601967
7407.421875	-119.155312
7450.488281	-119.699455
7493.554688	-120.207344
7536.621094	-120.715988
7579.687500	-121.206001
7622.753906	-121.673790
7665.820312	-122.123962
7708.886719	-122.550262
7751.953125	-122.937378
7795.019531	-123.298050
7838.085938	-123.592812
7881.152344	-123.846672
7924.218750	-124.026970
7967.285156	-124.107697
8010.351562	-124.071854
8053.417969	-123.911049
8096.484375	-123.585266
8139.550781	-123.078598
8182.617188	-122.404617
8225.683594	-121.524765
8268.750000	-120.465889
8311.816406	-119.220940
8354.882812	-117.795792
8397.949219	-116.205559
8441.015625	-114.437096
8484.082031	-112.478477
8527.148438	-110.321350
8570.214844	-107.928459
8613.281250	-105.259773
8656.347656	-102.254547
8699.414062	-98.820206
8742.480469	-94.822601
8785.546875	-90.040474
8828.613281	-84.088768
8871.679688	-76.175751
8914.746094	-64.099747
8957.812500	-21.020456
9000.878906	-15.267495
9043.945312	-21.552004
9087.011719	-65.165085
9130.078125	-77.182869
9173.144531	-85.197327
9216.210938	-91.298157
9259.277344	-96.251419
9302.343750	-100.431717
9345.410156	-104.055458
9388.476562	-107.258812
9431.542969	-110.130226
9474.609375	-112.733246
9517.675781	-115.116577
9560.742188	-117.305038
9603.808594	-119.340744
9646.875000	-121.213470
9689.941406	-122.968575
9733.007812	-124.574554
9776.074219	-126.073837
9819.140625	-127.443977
9862.207031	-128.687607
9905.273438	-129.799454
9948.339844	-130.760834
9991.406250	-131.585495
10034.472656	-132.255219
10077.539062	-132.750137
10120.605469	-133.116699
10163.671875	-133.348663
10206.738281	-133.436996
10249.804688	-133.407623
10292.871094	-133.303360
10335.937500	-133.107407
10379.003906	-132.823273
10422.070312	-132.516052
10465.136719	-132.139069
10508.203125	-131.748779
10551.269531	-131.280441
10594.335938	-130.822861
10637.402344	-130.305908
10680.468750	-129.779022
10723.535156	-129.222351
10766.601562	-128.674820
10809.667969	-128.082016
10852.734375	-127.466331
10895.800781	-126.836227
10938.867188	-126.186317
10981.933594	-125.518791
11025.000000	-124.819054
11068.066406	-124.112152
11111.132812	-123.377472
11154.199219	-122.611969
11197.265625	-121.835266
11240.332031	-121.019646
11283.398438	-120.188202
11326.464844	-119.321518
11369.531250	-118.437309
11412.597656	-117.511490
11455.664062	-116.545105
11498.730469	-115.546005
11541.796875	-114.508690
11584.863281	-113.429321
11627.929688	-112.300110
11670.996094	-111.117043
11714.062500	-109.880852
11757.128906	-108.582031
11800.195312	-107.214645
11843.261719	-105.769539
11886.328125	-104.241875
11929.394531	-102.616501
11972.460938	-100.885178
12015.527344	-99.025375
12058.593750	-97.025795
12101.660156	-94.857498
12144.726562	-92.490845
12187.792969	-89.885391
12230.859375	-86.987732
12273.925781	-83.722824
12316.992188	-79.982513
12360.058594	-75.601463
12403.125000	-70.306526
12446.191406	-63.592045
12489.257812	-54.317997
12532.324219	-38.399757
12575.390625	-22.847483
12618.457031	-22.019985
12661.523438	-34.580097
12704.589844	-52.646561
12747.656250	-62.475849
12790.722656	-69.464188
12833.789062	-74.925888
12876.855469	-79.420334
12919.921875	-83.243271
12962.988281	-86.571533
13006.054688	-89.519218
13049.121094	-92.166100
13092.187500	-94.567078
13135.253906	-96.764351
13178.320312	-98.790413
13221.386719	-100.671074
13264.453125	-102.423286
13307.519531	-104.066170
13350.585938	-105.608826
13393.652344	-107.070244
13436.718750	-108.449089
13479.785156	-109.762291
13522.851562	-111.010765
13565.917969	-112.200943
13608.984375	-113.342010
13652.050781	-114.430267
13695.117188	-115.479721
13738.183594	-116.486824
13781.250000	-117.456291
13824.316406	-118.389015
13867.382812	-119.291733
13910.449219	-120.159363
13953.515625	-121.001732
13996.582031	-121.814095
14039.648438	-122.590996
14082.714844	-123.362984
14125.781250	-124.098244
14168.847656	-124.814766
14211.914062	-125.505989
14254.980469	-126.161263
14298.046875	-126.791183
14341.113281	-127.401138
14384.179688	-127.977867
14427.246094	-128.533035
14470.312500	-129.028442
14513.378906	-129.476807
14556.445312	-129.896118
14599.511719	-130.228622
14642.578125	-130.507187
14685.644531	-130.656372
14728.710938	-130.799927
14771.777344	-130.751801
14814.843750	-130.614304
14857.910156	-130.374771
14900.976562	-129.998566
14944.042969	-129.512100
14987.109375	-128.900986
15030.175781	-128.203888
15073.242188	-127.412651
15116.308594	-126.521294
15159.375000	-125.567551
15202.441406	-124.542297
15245.507812	-123.429939
15288.574219	-122.256859
15331.640625	-121.010216
15374.707031	-119.693268
15417.773438	-118.297714
15460.839844	-116.814247
15503.906250	-115.242760
15546.972656	-113.568573
15590.039062	-111.771606
15633.105469	-109.847771
15676.171875	-107.770287
15719.238281	-105.511269
15762.304688	-103.040070
15805.371094	-100.310249
15848.437500	-97.259537
15891.503906	-93.802803
15934.570312	-89.812042
15977.636719	-85.086502
16020.703125	-79.280968
16063.769531	-71.712547
16106.835938	-60.624889
16149.902344	-34.857288
16192.968750	-26.611393
16236.035156	-30.576691
16279.101562	-55.347492
16322.167969	-68.564377
16365.234375	-76.963051
16408.300781	-83.218475
16451.367188	-88.224419
16494.433594	-92.404633
16537.500000	-95.995361
16580.566406	-99.143433
16623.632812	-101.947372
16666.699219	-104.475105
16709.765625	-106.775131
16752.832031	-108.885780
16795.898438	-110.834892
16838.964844	-112.648705
16882.031250	-114.341095
16925.097656	-115.927658
16968.164062	-117.423386
17011.230469	-118.829712
17054.296875	-120.175758
17097.363281	-121.443962
17140.429688	-122.654640
17183.496094	-123.800201
17226.562500	-124.909256
17269.628906	-125.957542
17312.695312	-126.982063
17355.761719	-127.941727
17398.828125	-128.873718
17441.894531	-129.748688
17484.960938	-130.634293
17528.027344	-131.436462
17571.093750	-132.224686
17614.160156	-132.960648
17657.226562	-133.666245
17700.292969	-134.347824
17743.359375	-134.963364
17786.425781	-135.540024
17829.492188	-136.054306
17872.558594	-136.492188
17915.625000	-136.895721
17958.691406	-137.177338
18001.757812	-137.393616
18044.824219	-137.552383
18087.890625	-137.554337
18130.957031	-137.497437
18174.023438	-137.281265
18217.089844	-137.013718
18260.156250	-136.667221
18303.222656	-136.288177
18346.289062	-135.683701
18389.355469	-135.118607
18432.421875	-134.404953
18475.488281	-133.707397
18518.554688	-132.917892
18561.621094	-132.114120
18604.687500	-131.230743
18647.753906	-130.321716
18690.820312	-129.367661
18733.886719	-128.339981
18776.953125	-127.296921
18820.019531	-126.184982
18863.085938	-125.011856
18906.152344	-123.818336
18949.218750	-122.533989
18992.285156	-121.187851
19035.351562	-119.768829
19078.417969	-118.258682
19121.484375	-116.661057
19164.550781	-114.955864
19207.617188	-113.127342
19250.683594	-111.160011
19293.750000	-109.029335
19336.816406	-106.707291
19379.882812	-104.154495
19422.949219	-101.321167
19466.015625	-98.135757
19509.082031	-94.498253
19552.148438	-90.256714
19595.214844	-85.163094
19638.281250	-78.771492
19681.347656	-70.120872
19724.414062	-56.194012
19767.480469	-35.189747
19810.546875	-32.207890
19853.613281	-41.666370
19896.679688	-64.124252
19939.746094	-74.786438
19982.812500	-82.164391
20025.878906	-87.857971
20068.945312	-92.507874
20112.011719	-96.444435
20155.078125	-99.858582
20198.144531	-102.874825
20241.210938	-105.575966
20284.277344	-108.023643
20327.343750	-110.263779
20370.410156	-112.324615
20413.476562	-114.236977
20456.542969	-116.011993
20499.609375	-117.680939
20542.675781	-119.248138
20585.742188	-120.722969
20628.808594	-122.120811
20671.875000	-123.456421
20714.941406	-124.709999
20758.007812	-125.922157
20801.074219	-127.082359
20844.140625	-128.176239
20887.207031	-129.247742
20930.273438	-130.221848
20973.339844	-131.228790
21016.406250	-132.171875
21059.472656	-133.051544
21102.539062	-133.919266
21145.605469	-134.743866
21188.671875	-135.568100
21231.738281	-136.293793
21274.804688	-137.024323
21317.871094	-137.702972
21360.937500	-138.334808
21404.003906	-138.957947
21447.070312	-139.493317
21490.136719	-139.907043
21533.203125	-140.305069
21576.269531	-140.613647
21619.335938	-140.923462
21662.402344	-140.981064
21705.468750	-141.018188
21748.535156	-140.861206
21791.601562	-140.739304
21834.667969	-140.406296
21877.734375	-140.060989
21920.800781	-139.589691
21963.867188	-138.972015
22006.933594	-138.406586
22050.000000	-137.717712
22093.066406	-136.977615
22136.132812	-136.174545
22179.199219	-135.320587
22222.265625	-134.426422
22265.332031	-133.481720
22308.398438	-132.517120
22351.464844	-131.465103
22394.531250	-130.368347
22437.597656	-129.232849
22480.664062	-128.045517
22523.730469	-126.784081
22566.796875	-125.468224
22609.863281	-124.088387
22652.929688	-122.617630
22695.996094	-121.065529
22739.062500	-119.412384
22782.128906	-117.649033
22825.195312	-115.756500
22868.261719	-113.715637
22911.328125	-111.501816
22954.394531	-109.080963
22997.460938	-106.408661
23040.527344	-103.433144
23083.593750	-100.066818
23126.660156	-96.194733
23169.726562	-91.632568
23212.792969	-86.070816
23255.859375	-78.915031
23298.925781	-68.734322
23341.992188	-49.038692
23385.058594	-37.934254
23428.125000	-39.712231
23471.191406	-57.368767
23514.257812	-72.321114
23557.324219	-81.307030
23600.390625	-87.874481
23643.457031	-93.078468
23686.523438	-97.396645
23729.589844	-101.091270
23772.656250	-104.320976
23815.722656	-107.192154
23858.789062	-109.774986
23901.855469	-112.119499
23944.921875	-114.272751
23987.988281	-116.258644
24031.054688	-118.105423
24074.121094	-119.822327
24117.187500	-121.436951
24160.253906	-122.958214
24203.320312	-124.399368
24246.386719	-125.753128
24289.453125	-127.042152
24332.519531	-128.276016
24375.585938	-129.452515
24418.652344	-130.588440
24461.718750	-131.653687
24504.785156	-132.690094
24547.851562	-133.659210
24590.917969	-134.629059
24633.984375	-135.529404
24677.050781	-136.449707
24720.117188	-137.312958
24763.183594	-138.151825
24806.250000	-138.918915
24849.316406	-139.725601
24892.382812	-140.519073
24935.449219	-141.230072
24978.515625	-141.894394
25021.582031	-142.603836
25064.648438	-143.250305
25107.714844	-143.983627
25150.781250	-144.557190
25193.847656	-145.053253
25236.914062	-145.697510
25279.980469	-146.303925
25323.046875	-146.816818
25366.113281	-147.455841
25409.179688	-147.802948
25452.246094	-148.342545
25495.312500	-148.790070
25538.378906	-149.159927
25581.445312	-149.465393
25624.511719	-149.601288
25667.578125	-149.825775
25710.644531	-149.764038
25753.710938	-149.032471
25796.777344	-149.437134
25839.843750	-149.445419
25882.910156	-148.941208
25925.976562	-148.630157
25969.042969	-147.858627
26012.109375	-147.027298
26055.175781	-146.029419
26098.242188	-145.108429
26141.308594	-144.015671
26184.375000	-142.745865
26227.441406	-141.390503
26270.507812	-139.985672
26313.574219	-138.493546
26356.640625	-136.837952
26399.707031	-135.071304
26442.773438	-133.177383
26485.839844	-131.102890
26528.906250	-128.834351
26571.972656	-126.352638
26615.039062	-123.608337
26658.105469	-120.517494
26701.171875	-116.999657
26744.238281	-112.911079
26787.304688	-108.025978
26830.371094	-101.948341
26873.437500	-93.860321
26916.503906	-81.437187
26959.570312	-47.883587
27002.636719	-42.651955
27045.703125	-49.479485
27088.769531	-83.525803
27131.835938	-95.217476
27174.902344	-103.055199
27217.968750	-109.022903
27261.035156	-113.860626
27304.101562	-117.944267
27347.167969	-121.470657
27390.234375	-124.578636
27433.300781	-127.373894
27476.367188	-129.859924
27519.433594	-132.200638
27562.500000	-134.288300
27605.566406	-136.254486
27648.632812	-138.098022
27691.699219	-139.814865
27734.765625	-141.403519
27777.832031	-142.900192
27820.898438	-144.334488
27863.964844	-145.655975
27907.031250	-146.875183
27950.097656	-148.256516
27993.164062	-149.282547
28036.230469	-150.290176
28079.296875	-151.414795
28122.363281	-152.509232
28165.429688	-153.222046
28208.496094	-153.947861
28251.562500	-154.745514
28294.628906	-155.317154
28337.695312	-155.675171
28380.761719	-156.204254
28423.828125	-156.424850
28466.894531	-156.538208
28509.960938	-155.586777
28553.027344	-155.807465
28596.093750	-156.327194
28639.160156	-155.865097
28682.226562	-155.937561
28725.292969	-155.747360
28768.359375	-155.117447
28811.425781	-154.606979
28854.492188	-153.887268
28897.558594	-153.638611
28940.625000	-152.892761
28983.691406	-152.342484
29026.757812	-151.510040
29069.824219	-150.847336
29112.890625	-150.168640
29155.957031	-149.404861
29199.023438	-148.487457
29242.089844	-147.756866
29285.156250	-147.004257
29328.222656	-145.690399
29371.289062	-144.823624
29414.355469	-144.322571
29457.421875	-143.326752
29500.488281	-142.405411
29543.554688	-141.270370
29586.621094	-140.229172
29629.687500	-139.113266
29672.753906	-137.948380
29715.820312	-136.703537
29758.886719	-135.377106
29801.953125	-134.017059
29845.019531	-132.568436
29888.085938	-131.028961
29931.152344	-129.402939
29974.218750	-127.663773
30017.285156	-125.797325
30060.351562	-123.800583
30103.417969	-121.621773
30146.484375	-119.241020
30189.550781	-116.625221
30232.617188	-113.716911
30275.683594	-110.429619
30318.750000	-106.667824
30361.816406	-102.255402
30404.882812	-96.913437
30447.949219	-90.122757
30491.015625	-80.697243
30534.082031	-64.234009
30577.148438	-49.609829
30620.214844	-49.255501
30663.281250	-62.603264
30706.347656	-79.981216
30749.414062	-89.644440
30792.480469	-96.552345
30835.546875	-101.965439
30878.613281	-106.426941
30921.679688	-110.225136
30964.746094	-113.535934
31007.812500	-116.469299
31050.878906	-119.095604
31093.945312	-121.498138
31137.011719	-123.683647
31180.078125	-125.701340
31223.144531	-127.542580
31266.210938	-129.313904
31309.277344	-130.918030
31352.343750	-132.498184
31395.410156	-133.990799
31438.476562	-135.314529
31481.542969	-136.624359
31524.609375	-137.890976
31567.675781	-139.066284
31610.742188	-140.213562
31653.808594	-141.317825
31696.875000	-142.338684
31739.941406	-143.290207
31783.007812	-144.309280
31826.074219	-145.234482
31869.140625	-146.129272
31912.207031	-146.983612
31955.273438	-147.922638
31998.339844	-148.698364
32041.406250	-149.415939
32084.472656	-149.919388
32127.539062	-150.257828
32170.605469	-151.914520
32213.671875	-152.308823
32256.738281	-152.920029
32299.804688	-153.543121
32342.871094	-154.417908
32385.937500	-154.769577
32429.003906	-155.544617
32472.070312	-155.767715
32515.136719	-156.670837
32558.203125	-156.874130
32601.269531	-156.885712
32644.335938	-156.648300
32687.402344	-158.098007
32730.468750	-158.186874
32773.535156	-158.462448
32816.601562	-157.429550
32859.667969	-158.394226
32902.734375	-158.209106
32945.800781	-157.271637
32988.867188	-156.990799
33031.933594	-156.818024
33075.000000	-156.280640
33118.066406	-155.515182
33161.132812	-154.328339
33204.199219	-153.531998
33247.265625	-152.560944
33290.332031	-151.444031
33333.398438	-150.334869
33376.464844	-148.998505
33419.531250	-147.494476
33462.597656	-145.997910
33505.664062	-144.508850
33548.730469	-142.758743
33591.796875	-140.997971
33634.863281	-139.076065
33677.929688	-136.964539
33720.996094	-134.717758
33764.062500	-132.237198
33807.128906	-129.473419
33850.195312	-126.413338
33893.261719	-122.930237
33936.328125	-118.906769
33979.394531	-114.144608
34022.460938	-108.277199
34065.527344	-100.606010
34108.593750	-89.289619
34151.660156	-61.127178
34194.726562	-53.460014
34237.792969	-57.926155
34280.859375	-85.311050
34323.925781	-98.202095
34366.992188	-106.476608
34410.058594	-112.666893
34453.125000	-117.627258
34496.191406	-121.773567
34539.257812	-125.329773
34582.324219	-128.470734
34625.390625	-131.269836
34668.457031	-133.762543
34711.523438	-136.060928
34754.589844	-138.146378
34797.656250	-140.095840
34840.722656	-141.500992
34883.789062	-143.340454
34926.855469	-145.156754
34969.921875	-146.649567
35012.988281	-148.138092
35056.054688	-149.185226
35099.121094	-150.658386
35142.187500	-151.717346
35185.253906	-152.909744
35228.320312	-153.859756
