Frequency (Hz)	Level (dB)
5.383301	-140.152344
10.766602	-140.109634
16.149902	-140.040100
21.533203	-139.952713
26.916504	-139.834381
32.299805	-139.712112
37.683105	-139.524887
43.066406	-139.351700
48.449707	-139.147720
53.833008	-138.902908
59.216309	-138.666183
64.599609	-138.414398
69.982910	-138.114716
75.366211	-137.816360
80.749512	-137.516449
86.132812	-137.179886
91.516113	-136.882675
96.899414	-136.466217
102.282715	-136.132355
107.666016	-135.754288
113.049316	-135.353958
118.432617	-134.957565
123.815918	-134.546249
129.199219	-134.123871
134.582520	-133.692551
139.965820	-133.248245
145.349121	-132.793991
150.732422	-132.334030
156.115723	-131.856323
161.499023	-131.372330
166.882324	-130.873840
172.265625	-130.368057
177.648926	-129.849960
183.032227	-129.320267
188.415527	-128.773346
193.798828	-128.223083
199.182129	-127.653320
204.565430	-127.072281
209.948730	-126.476273
215.332031	-125.867607
220.715332	-125.240295
226.098633	-124.600410
231.481934	-123.943848
236.865234	-123.266823
242.248535	-122.573044
247.631836	-121.859879
253.015137	-121.126526
258.398438	-120.370377
263.781738	-119.592171
269.165039	-118.790993
274.548340	-117.961937
279.931641	-117.103256
285.314941	-116.217545
290.698242	-115.299423
296.081543	-114.346916
301.464844	-113.359024
306.848145	-112.331161
312.231445	-111.260078
317.614746	-110.142792
322.998047	-108.975143
328.381348	-107.751610
333.764648	-106.467278
339.147949	-105.115845
344.531250	-103.689224
349.914551	-102.179184
355.297852	-100.575668
360.681152	-98.865311
366.064453	-97.033806
371.447754	-95.062370
376.831055	-92.927536
382.214355	-90.600113
387.597656	-88.041412
392.980957	-85.200233
398.364258	-82.005951
403.747559	-78.356918
409.130859	-74.099495
414.514160	-68.983688
419.897461	-62.556767
425.280762	-53.839626
430.664062	-39.716908
436.047363	-19.487274
441.430664	-16.753510
446.813965	-26.535448
452.197266	-48.337429
457.580566	-58.896973
462.963867	-66.228180
468.347168	-71.894135
473.730469	-76.525963
479.113770	-80.448502
484.497070	-83.852783
489.880371	-86.861145
495.263672	-89.556831
500.646973	-91.999176
506.030273	-94.232216
511.413574	-96.288963
516.796875	-98.195770
522.180176	-99.972343
527.563477	-101.637047
532.946777	-103.200836
538.330078	-104.677803
543.713379	-106.075401
549.096680	-107.402504
554.479980	-108.665794
559.863281	-109.870865
565.246582	-111.023506
570.629883	-112.128014
576.013184	-113.187439
581.396484	-114.205711
586.779785	-115.187584
592.163086	-116.132759
597.546387	-117.045876
602.929688	-117.928329
608.312988	-118.781387
613.696289	-119.612793
619.079590	-120.413483
624.462891	-121.190048
629.846191	-121.946854
635.229492	-122.680977
640.612793	-123.397301
645.996094	-124.094566
651.379395	-124.771950
656.762695	-125.434563
662.145996	-126.081299
667.529297	-126.710098
672.912598	-127.327950
678.295898	-127.928436
683.679199	-128.518463
689.062500	-129.091782
694.445801	-129.654373
699.829102	-130.214203
705.212402	-130.744751
710.595703	-131.278992
715.979004	-131.801575
721.362305	-132.307678
726.745605	-132.811218
732.128906	-133.297821
737.512207	-133.781815
742.895508	-134.257141
748.278809	-134.719437
753.662109	-135.177704
759.045410	-135.627609
764.428711	-136.068008
769.812012	-136.508682
775.195312	-136.924408
780.578613	-137.392761
785.961914	-137.751984
791.345215	-138.177185
796.728516	-138.579254
802.111816	-138.961838
807.495117	-139.349197
812.878418	-139.752579
818.261719	-140.101517
823.645020	-140.476089
829.028320	-140.855392
834.411621	-141.211319
839.794922	-141.544983
845.178223	-141.919846
850.561523	-142.233841
855.944824	-142.583786
861.328125	-142.910782
866.711426	-143.227417
872.094727	-143.565842
877.478027	-143.842377
882.861328	-144.156189
888.244629	-144.462784
893.627930	-144.734039
899.011230	-145.017975
904.394531	-145.292404
909.777832	-145.540863
915.161133	-145.797852
920.544434	-146.024261
925.927734	-146.273849
931.311035	-146.443985
936.694336	-146.682526
942.077637	-146.817627
947.460938	-147.012421
952.844238	-147.126862
958.227539	-147.305084
963.610840	-147.376801
968.994141	-147.395233
974.377441	-147.518890
979.760742	-147.518982
985.144043	-147.489944
990.527344	-147.422668
995.910645	-147.368408
1001.293945	-147.263840
1006.677246	-147.107758
1012.060547	-146.938126
1017.443848	-146.715027
1022.827148	-146.474335
1028.210449	-146.201035
1033.593750	-145.895966
1038.977051	-145.555511
1044.360352	-145.190048
1049.743652	-144.790115
1055.126953	-144.375153
1060.510254	-143.938553
1065.893555	-143.443680
1071.276855	-142.955124
1076.660156	-142.440277
1082.043457	-141.893814
1087.426758	-141.336151
1092.810059	-140.750732
1098.193359	-140.147095
1103.576660	-139.526077
1108.959961	-138.879990
1114.343262	-138.216019
1119.726562	-137.532150
1125.109863	-136.821777
1130.493164	-136.090500
1135.876465	-135.340363
1141.259766	-134.564468
1146.643066	-133.768356
1152.026367	-132.941742
1157.409668	-132.081192
1162.792969	-131.196106
1168.176270	-130.280121
1173.559570	-129.332291
1178.942871	-128.346069
1184.326172	-127.323570
1189.709473	-126.258141
1195.092773	-125.149483
1200.476074	-123.990883
1205.859375	-122.779572
1211.242676	-121.509880
1216.625977	-120.175468
1222.009277	-118.770187
1227.392578	-117.285347
1232.775879	-115.713341
1238.159180	-114.037834
1243.542480	-112.250832
1248.925781	-110.332024
1254.309082	-108.262070
1259.692383	-106.013809
1265.075684	-103.553902
1270.458984	-100.837418
1275.842285	-97.803818
1281.225586	-94.368019
1286.608887	-90.404373
1291.992188	-85.715904
1297.375488	-79.965485
1302.758789	-72.490791
1308.142090	-61.613796
1313.525391	-37.623951
1318.908691	-28.801876
1324.291992	-32.289101
1329.675293	-55.063309
1335.058594	-68.612862
1340.441895	-77.131798
1345.825195	-83.452751
1351.208496	-88.501137
1356.591797	-92.711212
1361.975098	-96.324783
1367.358398	-99.491356
1372.741699	-102.309891
1378.125000	-104.849785
1383.508301	-107.161072
1388.891602	-109.281990
1394.274902	-111.240944
1399.658203	-113.061646
1405.041504	-114.762634
1410.424805	-116.356171
1415.808105	-117.857506
1421.191406	-119.276558
1426.574707	-120.620743
1431.958008	-121.898216
1437.341309	-123.114548
1442.724609	-124.275772
1448.107910	-125.387512
1453.491211	-126.453125
1458.874512	-127.474968
1464.257812	-128.457993
1469.641113	-129.404282
1475.024414	-130.320267
1480.407715	-131.198608
1485.791016	-132.052673
1491.174316	-132.878281
1496.557617	-133.680695
1501.940918	-134.447845
1507.324219	-135.199738
1512.707520	-135.931046
1518.090820	-136.638748
1523.474121	-137.329208
1528.857422	-138.002090
1534.240723	-138.652130
1539.624023	-139.292526
1545.007324	-139.916595
1550.390625	-140.519989
1555.773926	-141.115234
1561.157227	-141.692398
1566.540527	-142.259674
1571.923828	-142.810165
1577.307129	-143.361633
1582.690430	-143.880600
1588.073730	-144.401123
1593.457031	-144.896362
1598.840332	-145.410156
1604.223633	-145.883575
1609.606934	-146.367783
1614.990234	-146.832016
1620.373535	-147.281815
1625.756836	-147.720566
1631.140137	-148.172668
1636.523438	-148.608185
1641.906738	-149.039658
1647.290039	-149.423279
1652.673340	-149.864914
1658.056641	-150.230759
1663.439941	-150.694824
1668.823242	-151.050415
1674.206543	-151.400864
1679.589844	-151.778946
1684.973145	-152.123047
1690.356445	-152.463608
1695.739746	-152.834320
1701.123047	-153.149765
1706.506348	-153.448929
1711.889648	-153.767517
1717.272949	-154.096771
1722.656250	-154.356522
1728.039551	-154.668442
1733.422852	-154.901505
1738.806152	-155.189056
1744.189453	-155.408585
1749.572754	-155.657028
1754.956055	-155.857498
1760.339355	-156.047272
1765.722656	-156.198029
1771.105957	-156.374313
1776.489258	-156.518311
1781.872559	-156.610443
1787.255859	-156.705048
1792.639160	-156.778641
1798.022461	-156.817947
1803.405762	-156.831268
1808.789062	-156.832764
1814.172363	-156.674545
1819.555664	-156.451752
1824.938965	-156.595642
1830.322266	-156.521683
1835.705566	-156.368484
1841.088867	-156.222855
1846.472168	-155.999100
1851.855469	-155.763031
1857.238770	-155.541977
1862.622070	-155.244003
1868.005371	-154.973175
1873.388672	-154.678192
1878.771973	-154.340652
1884.155273	-153.971252
1889.538574	-153.622635
1894.921875	-153.238327
1900.305176	-152.835587
1905.688477	-152.421799
1911.071777	-151.985962
1916.455078	-151.543579
1921.838379	-151.073944
1927.221680	-150.607880
1932.604980	-150.105743
1937.988281	-149.606049
1943.371582	-149.094299
1948.754883	-148.549530
1954.138184	-148.010880
1959.521484	-147.441223
1964.904785	-146.869293
1970.288086	-146.275635
1975.671387	-145.674377
1981.054688	-145.042328
1986.437988	-144.408615
1991.821289	-143.750244
1997.204590	-143.069763
2002.587891	-142.375458
2007.971191	-141.662140
2013.354492	-140.926163
2018.737793	-140.168839
2024.121094	-139.387375
2029.504395	-138.578262
2034.887695	-137.749329
2040.270996	-136.887680
2045.654297	-135.999557
2051.037598	-135.076889
2056.420898	-134.120834
2061.804199	-133.130005
2067.187500	-132.096649
2072.570801	-131.021591
2077.954102	-129.898758
2083.337402	-128.726135
2088.720703	-127.496429
2094.104004	-126.206665
2099.487305	-124.848076
2104.870605	-123.414948
2110.253906	-121.897346
2115.637207	-120.285500
2121.020508	-118.565811
2126.403809	-116.723839
2131.787109	-114.741165
2137.170410	-112.593025
2142.553711	-110.250252
2147.937012	-107.673309
2153.320312	-104.810234
2158.703613	-101.588684
2164.086914	-97.904503
2169.470215	-93.599632
2174.853516	-88.415588
2180.236816	-81.880028
2185.620117	-72.955635
2191.003418	-58.198822
2196.386719	-40.017326
2201.770020	-38.026943
2207.153320	-48.826183
2212.536621	-68.941925
2217.919922	-79.204620
2223.303223	-86.398750
2228.686523	-91.983513
2234.069824	-96.560875
2239.453125	-100.443993
2244.836426	-103.818138
2250.219727	-106.802490
2255.603027	-109.478622
2260.986328	-111.904572
2266.369629	-114.123398
2271.752930	-116.168076
2277.136230	-118.063942
2282.519531	-119.831047
2287.902832	-121.486763
2293.286133	-123.042969
2298.669434	-124.511978
2304.052734	-125.903313
2309.436035	-127.224159
2314.819336	-128.478592
2320.202637	-129.682526
2325.585938	-130.828812
2330.969238	-131.927917
2336.352539	-132.982437
2341.735840	-133.994019
2347.119141	-134.974899
2352.502441	-135.913101
2357.885742	-136.824722
2363.269043	-137.700714
2368.652344	-138.551743
2374.035645	-139.371048
2379.418945	-140.174866
2384.802246	-140.947220
2390.185547	-141.702240
2395.568848	-142.434433
2400.952148	-143.135529
2406.335449	-143.847382
2411.718750	-144.508133
2417.102051	-145.173294
2422.485352	-145.817154
2427.868652	-146.442184
2433.251953	-147.050095
2438.635254	-147.654465
2444.018555	-148.237427
2449.401855	-148.811005
2454.785156	-149.368546
2460.168457	-149.923721
2465.551758	-150.447083
2470.935059	-150.988525
2476.318359	-151.493423
2481.701660	-152.004791
2487.084961	-152.501877
2492.468262	-152.957352
2497.851562	-153.470947
2503.234863	-153.856400
2508.618164	-154.343933
2514.001465	-154.825287
2519.384766	-155.295990
2524.768066	-155.734299
2530.151367	-156.191605
2535.534668	-156.600677
2540.917969	-157.051483
2546.301270	-157.341431
2551.684570	-157.839844
2557.067871	-158.219131
2562.451172	-158.594299
2567.834473	-158.989624
2573.217773	-159.395782
2578.601074	-159.745911
2583.984375	-160.102646
2589.367676	-160.502426
2594.750977	-160.810333
2600.134277	-161.147705
2605.517578	-161.550278
2610.900879	-161.823364
2616.284180	-162.154297
2621.667480	-162.527084
2627.050781	-162.819443
2632.434082	-163.167740
2637.817383	-163.448105
2643.200684	-163.739090
2648.583984	-164.066025
2653.967285	-164.334259
2659.350586	-164.486450
2664.733887	-164.845322
2670.117188	-165.155228
2675.500488	-165.316437
2680.883789	-165.512421
2686.267090	-165.894760
2691.650391	-166.053329
2697.033691	-166.205917
2702.416992	-166.410721
2707.800293	-166.685760
2713.183594	-166.760834
2718.566895	-166.921478
2723.950195	-167.013351
2729.333496	-167.108566
2734.716797	-167.343079
2740.100098	-167.279465
2745.483398	-167.257553
2750.866699	-167.280548
2756.250000	-167.232239
2761.633301	-167.138763
2767.016602	-167.013718
2772.399902	-166.876556
2777.783203	-166.745453
2783.166504	-166.505737
2788.549805	-166.258377
2793.933105	-165.907623
2799.316406	-165.760223
2804.699707	-165.297211
2810.083008	-164.937698
2815.466309	-164.590729
2820.849609	-164.137543
2826.232910	-163.650620
2831.616211	-163.206329
2836.999512	-162.705322
2842.382812	-162.152649
2847.766113	-161.529709
2853.149414	-160.861710
2858.532715	-160.376663
2863.916016	-159.787842
2869.299316	-159.143387
2874.682617	-158.457642
2880.065918	-157.780685
2885.449219	-157.074265
2890.832520	-156.332687
2896.215820	-155.576004
2901.599121	-154.795349
2906.982422	-153.999069
2912.365723	-153.176880
2917.749023	-152.314362
2923.132324	-151.417130
2928.515625	-150.481827
2933.898926	-149.531769
2939.282227	-148.535324
2944.665527	-147.504089
2950.048828	-146.433838
2955.432129	-145.318176
2960.815430	-144.144241
2966.198730	-142.931046
2971.582031	-141.651230
2976.965332	-140.307800
2982.348633	-138.892532
2987.731934	-137.395645
2993.115234	-135.810593
2998.498535	-134.123840
3003.881836	-132.327438
3009.265137	-130.391815
3014.648438	-128.305267
3020.031738	-126.039116
3025.415039	-123.560265
3030.798340	-120.820091
3036.181641	-117.758621
3041.564941	-114.288460
3046.948242	-110.280701
3052.331543	-105.531990
3057.714844	-99.692390
3063.098145	-92.066132
3068.481445	-80.847488
3073.864746	-53.785366
3079.248047	-45.875874
3084.631348	-50.129730
3090.014648	-76.322983
3095.397949	-89.349281
3100.781250	-97.677017
3106.164551	-103.893196
3111.547852	-108.873611
3116.931152	-113.035248
3122.314453	-116.611710
3127.697754	-119.748840
3133.081055	-122.543365
3138.464355	-125.061913
3143.847656	-127.355438
3149.230957	-129.458954
3154.614258	-131.404068
3159.997559	-133.212509
3165.380859	-134.900558
3170.764160	-136.482620
3176.147461	-137.973022
3181.530762	-139.387070
3186.914062	-140.717804
3192.297363	-141.970779
3197.680664	-143.163162
3203.063965	-144.339417
3208.447266	-145.450287
3213.830566	-146.507492
3219.213867	-147.516556
3224.597168	-148.506104
3229.980469	-149.444717
3235.363770	-150.348633
3240.747070	-151.217621
3246.130371	-152.070679
3251.513672	-152.880569
3256.896973	-153.684845
3262.280273	-154.439621
3267.663574	-155.203140
3273.046875	-155.911362
3278.430176	-156.582092
3283.813477	-157.354523
3289.196777	-157.920776
3294.580078	-158.599060
3299.963379	-159.245056
3305.346680	-159.852219
3310.729980	-160.435593
3316.113281	-161.046127
3321.496582	-161.586090
3326.879883	-162.160202
3332.263184	-162.692673
3337.646484	-163.220505
3343.029785	-163.758743
3348.413086	-164.175323
3353.796387	-164.470779
3359.179688	-165.289032
3364.562988	-165.656723
3369.946289	-166.136566
3375.329590	-166.643173
3380.712891	-167.090546
3386.096191	-167.489029
3391.479492	-168.003586
3396.862793	-168.290421
3402.246094	-168.759674
3407.629395	-169.146164
3413.012695	-169.495148
3418.395996	-169.947784
3423.779297	-170.213959
3429.162598	-170.547821
3434.545898	-170.802032
3439.929199	-171.188171
3445.312500	-171.690460
3450.695801	-171.742706
3456.079102	-172.154419
3461.462402	-172.411835
3466.845703	-172.735748
3472.229004	-172.892929
3477.612305	-173.224625
3482.995605	-173.437134
3488.378906	-173.555405
3493.762207	-173.803696
3499.145508	-173.855118
3504.528809	-173.818771
3509.912109	-174.111115
3515.295410	-174.216232
3520.678711	-173.866592
3526.062012	-174.191315
3531.445312	-174.429016
3536.828613	-174.024185
3542.211914	-173.224152
3547.595215	-174.319092
3552.978516	-174.337952
3558.361816	-174.042877
3563.745117	-173.881042
3569.128418	-174.136307
3574.511719	-173.885941
3579.895020	-173.613251
3585.278320	-173.274048
3590.661621	-173.208923
3596.044922	-173.089600
3601.428223	-172.868591
3606.811523	-172.016251
3612.194824	-172.117081
3617.578125	-171.979858
3622.961426	-171.391632
3628.344727	-171.093369
3633.728027	-170.780151
3639.111328	-170.483368
3644.494629	-170.034378
3649.877930	-169.549072
3655.261230	-169.194046
3660.644531	-168.813766
3666.027832	-168.356171
3671.411133	-167.934753
3676.794434	-167.356216
3682.177734	-167.054947
3687.561035	-166.313751
3692.944336	-165.405624
3698.327637	-164.999924
3703.710938	-164.901260
3709.094238	-164.378510
3714.477539	-163.745712
3719.860840	-163.238739
3725.244141	-162.664124
3730.627441	-162.061066
3736.010742	-161.441132
3741.394043	-160.835648
3746.777344	-160.196655
3752.160645	-159.520966
3757.543945	-158.837006
3762.927246	-158.149536
3768.310547	-157.448853
3773.693848	-156.694992
3779.077148	-155.954498
3784.460449	-155.162750
3789.843750	-154.341187
3795.227051	-153.500244
3800.610352	-152.631409
3805.993652	-151.745331
3811.376953	-150.824692
3816.760254	-149.863510
3822.143555	-148.863144
3827.526855	-147.830093
3832.910156	-146.748306
3838.293457	-145.619583
3843.676758	-144.448608
3849.060059	-143.208725
3854.443359	-141.914474
3859.826660	-140.551239
3865.209961	-139.110306
3870.593262	-137.588821
3875.976562	-135.965378
3881.359863	-134.234024
3886.743164	-132.380630
3892.126465	-130.391724
3897.509766	-128.230362
3902.893066	-125.872131
3908.276367	-123.277550
3913.659668	-120.392693
3919.042969	-117.143463
3924.426270	-113.423935
3929.809570	-109.071281
3935.192871	-103.817650
3940.576172	-97.170151
3945.959473	-88.028145
3951.342773	-72.563225
3956.726074	-56.110390
3962.109375	-54.856197
3967.492676	-66.743240
3972.875977	-85.495827
3978.259277	-95.479866
3983.642578	-102.542503
3989.025879	-108.048775
3994.409180	-112.573486
3999.792480	-116.418266
4005.175781	-119.762970
4010.559082	-122.724228
4015.942383	-125.381821
4021.325684	-127.791298
4026.708984	-129.996689
4032.092285	-132.030045
4037.475586	-133.917572
4042.858887	-135.675339
4048.242188	-137.320923
4053.625488	-138.870773
4059.008789	-140.330963
4064.392090	-141.715927
4069.775391	-143.032043
4075.158691	-144.276138
4080.541992	-145.482574
4085.925293	-146.621246
4091.308594	-147.719589
4096.691895	-148.761078
4102.075195	-149.784943
4107.458496	-150.748367
4112.841797	-151.693054
4118.225098	-152.592743
4123.608398	-153.469772
4128.991699	-154.297562
4134.375000	-155.139160
4139.758301	-155.931808
4145.141602	-156.705109
4150.524902	-157.444275
4155.908203	-158.186417
4161.291504	-158.834686
4166.674805	-159.624298
4172.058105	-160.225266
4177.441406	-160.889435
4182.824707	-161.501633
4188.208008	-162.075363
4193.591309	-162.597183
4198.974609	-163.346771
4204.357910	-163.923920
4209.741211	-164.422333
4215.124512	-164.965530
4220.507812	-165.594986
4225.891113	-165.892929
4231.274414	-166.534531
4236.657715	-167.081650
4242.041016	-167.780090
4247.424316	-168.061920
4252.807617	-168.598526
4258.190918	-169.074585
4263.574219	-169.566757
4268.957520	-169.915985
4274.340820	-170.389984
4279.724121	-170.918579
4285.107422	-171.334610
4290.490723	-171.716187
4295.874023	-172.015594
4301.257324	-172.291992
4306.640625	-173.198212
4312.023926	-173.292480
4317.407227	-173.472122
4322.790527	-174.144058
4328.173828	-174.570221
4333.557129	-174.858780
4338.940430	-175.083801
4344.323730	-175.577255
4349.707031	-175.978973
4355.090332	-176.121643
4360.473633	-176.045120
4365.856934	-176.815887
4371.240234	-177.160873
4376.623535	-177.012421
4382.006836	-174.533539
4387.390137	-175.965927
4392.773438	-178.242752
4398.156738	-177.159515
4403.540039	-177.060135
4408.923340	-178.726212
4414.306641	-179.636475
4419.689941	-179.607101
4425.073242	-179.419006
4430.456543	-179.671341
4435.839844	-179.675552
4441.223145	-179.841064
4446.606445	-180.332321
4451.989746	-181.203659
4457.373047	-181.403595
4462.756348	-181.607224
4468.139648	-180.092148
4473.522949	-180.860443
4478.906250	-182.453949
4484.289551	-181.857376
4489.672852	-181.610550
4495.056152	-182.666992
4500.439453	-182.569199
4505.822754	-182.140091
4511.206055	-182.173294
4516.589355	-182.958008
4521.972656	-183.202530
4527.355957	-182.676239
4532.739258	-182.258469
4538.122559	-182.644958
4543.505859	-182.992142
