Frequency (Hz)	Level (dB)
5.383301	-139.816040
10.766602	-139.773911
16.149902	-139.707825
21.533203	-139.614792
26.916504	-139.500397
32.299805	-139.373764
37.683105	-139.188431
43.066406	-139.012787
48.449707	-138.808487
53.833008	-138.569351
59.216309	-138.331177
64.599609	-138.077957
69.982910	-137.779800
75.366211	-137.488983
80.749512	-137.182724
86.132812	-136.843140
91.516113	-136.543701
96.899414	-136.137482
102.282715	-135.795074
107.666016	-135.417725
113.049316	-135.017776
118.432617	-134.623795
123.815918	-134.209671
129.199219	-133.787155
134.582520	-133.355347
139.965820	-132.913727
145.349121	-132.457016
150.732422	-131.997696
156.115723	-131.520493
161.499023	-131.035431
166.882324	-130.539139
172.265625	-130.031662
177.648926	-129.513565
183.032227	-128.982895
188.415527	-128.438339
193.798828	-127.887421
199.182129	-127.315445
204.565430	-126.736458
209.948730	-126.140884
215.332031	-125.531158
220.715332	-124.904663
226.098633	-124.264687
231.481934	-123.607498
236.865234	-122.930695
242.248535	-122.235985
247.631836	-121.525177
253.015137	-120.790085
258.398438	-120.034256
263.781738	-119.256256
269.165039	-118.455566
274.548340	-117.625870
279.931641	-116.767479
285.314941	-115.881607
290.698242	-114.963570
296.081543	-114.010887
301.464844	-113.022957
306.848145	-111.995384
312.231445	-110.924240
317.614746	-109.807144
322.998047	-108.639206
328.381348	-107.415550
333.764648	-106.131699
339.147949	-104.780014
344.531250	-103.353271
349.914551	-101.843384
355.297852	-100.239815
360.681152	-98.529518
366.064453	-96.697945
371.447754	-94.726578
376.831055	-92.591881
382.214355	-90.263741
387.597656	-87.685158
392.980957	-84.859169
398.364258	-81.669670
403.747559	-78.021034
409.130859	-73.763634
414.514160	-68.647827
419.897461	-62.220913
425.280762	-53.503765
430.664062	-39.381039
436.047363	-19.151419
441.430664	-16.417664
446.813965	-26.199591
452.197266	-48.001568
457.580566	-58.561119
462.963867	-65.892326
468.347168	-71.558281
473.730469	-76.190109
479.113770	-80.112625
484.497070	-83.510918
489.880371	-86.494148
495.263672	-89.199257
500.646973	-91.663391
506.030273	-93.896362
511.413574	-95.953072
516.796875	-97.859962
522.180176	-99.636497
527.563477	-101.301163
532.946777	-102.864906
538.330078	-104.342064
543.713379	-105.739586
549.096680	-107.066391
554.479980	-108.329910
559.863281	-109.535233
565.246582	-110.687729
570.629883	-111.792152
576.013184	-112.851288
581.396484	-113.869926
586.779785	-114.851631
592.163086	-115.797005
597.546387	-116.709480
602.929688	-117.592415
608.312988	-118.445648
613.696289	-119.276756
619.079590	-120.077614
624.462891	-120.854218
629.846191	-121.611465
635.229492	-122.345116
640.612793	-123.061043
645.996094	-123.758675
651.379395	-124.436081
656.762695	-125.098709
662.145996	-125.745171
667.529297	-126.374969
672.912598	-126.990974
678.295898	-127.590790
683.679199	-128.183487
689.062500	-128.755890
694.445801	-129.317139
699.829102	-129.878174
705.212402	-130.409912
710.595703	-130.943024
715.979004	-131.463257
721.362305	-131.973145
726.745605	-132.473480
732.128906	-132.960449
737.512207	-133.444656
742.895508	-133.919113
748.278809	-134.382126
753.662109	-134.841171
759.045410	-135.289566
764.428711	-135.730453
769.812012	-136.172623
775.195312	-136.582809
780.578613	-137.054352
785.961914	-137.407242
791.345215	-137.836029
796.728516	-138.236008
802.111816	-138.615173
807.495117	-139.000854
812.878418	-139.397049
818.261719	-139.748199
823.645020	-140.120590
829.028320	-140.492264
834.411621	-140.843552
839.794922	-141.177994
845.178223	-141.544449
850.561523	-141.851364
855.944824	-142.194427
861.328125	-142.512985
866.711426	-142.818878
872.094727	-143.147049
877.478027	-143.407593
882.861328	-143.710464
888.244629	-144.002350
893.627930	-144.258270
899.011230	-144.516357
904.394531	-144.765793
909.777832	-144.991241
915.161133	-145.216553
920.544434	-145.387772
925.927734	-145.610672
931.311035	-145.747375
936.694336	-145.946487
942.077637	-145.985596
947.460938	-146.149414
952.844238	-146.196182
958.227539	-146.309311
963.610840	-146.301880
968.994141	-146.245438
974.377441	-146.287216
979.760742	-146.182678
985.144043	-146.063232
990.527344	-145.928711
995.910645	-145.773895
1001.293945	-145.583328
1006.677246	-145.347900
1012.060547	-145.097107
1017.443848	-144.793198
1022.827148	-144.491989
1028.210449	-144.146286
1033.593750	-143.766678
1038.977051	-143.376770
1044.360352	-142.965088
1049.743652	-142.506012
1055.126953	-142.047226
1060.510254	-141.580002
1065.893555	-141.066193
1071.276855	-140.538223
1076.660156	-139.998230
1082.043457	-139.440628
1087.426758	-138.863220
1092.810059	-138.260406
1098.193359	-137.648453
1103.576660	-137.009842
1108.959961	-136.361542
1114.343262	-135.689285
1119.726562	-134.998108
1125.109863	-134.277924
1130.493164	-133.538361
1135.876465	-132.794464
1141.259766	-132.015701
1146.643066	-131.213623
1152.026367	-130.389481
1157.409668	-129.526794
1162.792969	-128.639053
1168.176270	-127.724281
1173.559570	-126.774086
1178.942871	-125.787941
1184.326172	-124.765205
1189.709473	-123.700462
1195.092773	-122.590248
1200.476074	-121.430740
1205.859375	-120.219765
1211.242676	-118.950546
1216.625977	-117.615021
1222.009277	-116.209869
1227.392578	-114.725487
1232.775879	-113.153236
1238.159180	-111.477875
1243.542480	-109.690369
1248.925781	-107.771957
1254.309082	-105.701950
1259.692383	-103.453087
1265.075684	-100.933144
1270.458984	-98.156395
1275.842285	-95.235588
1281.225586	-91.808006
1286.608887	-87.844246
1291.992188	-83.155807
1297.375488	-77.405365
1302.758789	-69.930679
1308.142090	-59.053680
1313.525391	-35.063847
1318.908691	-26.241774
1324.291992	-29.728996
1329.675293	-52.503201
1335.058594	-66.052757
1340.441895	-74.571693
1345.825195	-80.892639
1351.208496	-85.941086
1356.591797	-90.151245
1361.975098	-93.754974
1367.358398	-96.317780
1372.741699	-98.722023
1378.125000	-102.201126
1383.508301	-104.596413
1388.891602	-106.720581
1394.274902	-108.680565
1399.658203	-110.501129
1405.041504	-112.202278
1410.424805	-113.795906
1415.808105	-115.297844
1421.191406	-116.716125
1426.574707	-118.059792
1431.958008	-119.338028
1437.341309	-120.556389
1442.724609	-121.715790
1448.107910	-122.826958
1453.491211	-123.892143
1458.874512	-124.917053
1464.257812	-125.898094
1469.641113	-126.845749
1475.024414	-127.759941
1480.407715	-128.639069
1485.791016	-129.492661
1491.174316	-130.319946
1496.557617	-131.120544
1501.940918	-131.888672
1507.324219	-132.640884
1512.707520	-133.368973
1518.090820	-134.077423
1523.474121	-134.769287
1528.857422	-135.444214
1534.240723	-136.093140
1539.624023	-136.730789
1545.007324	-137.354370
1550.390625	-137.957870
1555.773926	-138.554504
1561.157227	-139.135269
1566.540527	-139.699173
1571.923828	-140.247513
1577.307129	-140.798676
1582.690430	-141.316544
1588.073730	-141.831970
1593.457031	-142.334076
1598.840332	-142.830124
1604.223633	-143.326233
1609.606934	-143.793594
1614.990234	-144.260681
1620.373535	-144.713348
1625.756836	-145.160553
1631.140137	-145.605270
1636.523438	-146.018951
1641.906738	-146.429276
1647.290039	-146.832413
1652.673340	-147.242310
1658.056641	-147.599396
1663.439941	-148.061188
1668.823242	-148.389038
1674.206543	-148.730576
1679.589844	-149.081192
1684.973145	-149.406677
1690.356445	-149.737610
1695.739746	-150.070450
1701.123047	-150.352737
1706.506348	-150.622955
1711.889648	-150.925369
1717.272949	-151.171188
1722.656250	-151.386642
1728.039551	-151.660583
1733.422852	-151.818466
1738.806152	-152.033096
1744.189453	-152.197784
1749.572754	-152.338470
1754.956055	-152.452408
1760.339355	-152.545639
1765.722656	-152.609177
1771.105957	-152.673965
1776.489258	-152.671158
1781.872559	-152.676498
1787.255859	-152.639557
1792.639160	-152.574341
1798.022461	-152.486252
1803.405762	-152.396606
1808.789062	-152.264740
1814.172363	-151.995560
1819.555664	-151.810898
1824.938965	-151.729065
1830.322266	-151.462830
1835.705566	-151.235306
1841.088867	-150.971786
1846.472168	-150.665131
1851.855469	-150.368164
1857.238770	-150.013733
1862.622070	-149.690079
1868.005371	-149.357483
1873.388672	-148.979431
1878.771973	-148.598816
1884.155273	-148.213730
1889.538574	-147.782104
1894.921875	-147.376114
1900.305176	-146.932968
1905.688477	-146.483734
1911.071777	-146.041092
1916.455078	-145.562317
1921.838379	-145.085159
1927.221680	-144.593948
1932.604980	-144.093887
1937.988281	-143.572113
1943.371582	-143.037155
1948.754883	-142.498169
1954.138184	-141.948868
1959.521484	-141.370193
1964.904785	-140.796219
1970.288086	-140.199097
1975.671387	-139.578461
1981.054688	-138.957230
1986.437988	-138.315826
1991.821289	-137.655182
1997.204590	-136.976013
2002.587891	-136.280777
2007.971191	-135.565338
2013.354492	-134.825165
2018.737793	-134.069824
2024.121094	-133.287033
2029.504395	-132.476349
2034.887695	-131.647903
2040.270996	-130.789749
2045.654297	-129.897171
2051.037598	-128.975723
2056.420898	-128.019012
2061.804199	-127.026199
2067.187500	-125.994225
2072.570801	-124.918694
2077.954102	-123.796364
2083.337402	-122.622795
2088.720703	-121.393028
2094.104004	-120.104317
2099.487305	-118.745560
2104.870605	-117.311470
2110.253906	-115.794579
2115.637207	-114.182251
2121.020508	-112.463081
2126.403809	-110.620995
2131.787109	-108.638062
2137.170410	-106.490356
2142.553711	-104.138733
2147.937012	-101.470741
2153.320312	-98.677467
2158.703613	-95.484650
2164.086914	-91.801353
2169.470215	-87.496559
2174.853516	-82.312553
2180.236816	-75.776985
2185.620117	-66.852592
2191.003418	-52.095776
2196.386719	-33.914280
2201.770020	-31.923891
2207.153320	-42.723145
2212.536621	-62.838882
2217.919922	-73.101585
2223.303223	-80.295715
2228.686523	-85.880478
2234.069824	-90.457916
2239.453125	-94.341042
2244.836426	-97.096283
2250.219727	-97.625603
2255.603027	-101.805504
2260.986328	-105.800514
2266.369629	-108.019981
2271.752930	-110.064743
2277.136230	-111.960854
2282.519531	-113.727898
2287.902832	-115.383812
2293.286133	-116.939560
2298.669434	-118.409355
2304.052734	-119.800743
2309.436035	-121.119003
2314.819336	-122.378311
2320.202637	-123.576889
2325.585938	-124.725273
2330.969238	-125.824806
2336.352539	-126.878456
2341.735840	-127.892365
2347.119141	-128.870422
2352.502441	-129.812210
2357.885742	-130.720551
2363.269043	-131.597946
2368.652344	-132.447021
2374.035645	-133.270370
2379.418945	-134.071716
2384.802246	-134.843964
2390.185547	-135.598038
2395.568848	-136.329132
2400.952148	-137.039688
2406.335449	-137.732193
2411.718750	-138.412582
2417.102051	-139.076157
2422.485352	-139.710602
2427.868652	-140.335770
2433.251953	-140.954147
2438.635254	-141.545868
2444.018555	-142.141693
2449.401855	-142.704712
2454.785156	-143.262253
2460.168457	-143.826050
2465.551758	-144.360992
2470.935059	-144.885025
2476.318359	-145.397522
2481.701660	-145.899887
2487.084961	-146.418182
2492.468262	-146.884781
2497.851562	-147.376633
2503.234863	-147.866028
2508.618164	-148.297058
2514.001465	-148.762848
2519.384766	-149.195816
2524.768066	-149.639938
2530.151367	-150.070801
2535.534668	-150.479248
2540.917969	-150.918777
2546.301270	-151.280899
2551.684570	-151.698441
2557.067871	-152.127197
2562.451172	-152.498810
2567.834473	-152.879990
2573.217773	-153.282547
2578.601074	-153.634232
2583.984375	-153.988983
2589.367676	-154.334518
2594.750977	-154.684784
2600.134277	-155.030289
2605.517578	-155.358963
2610.900879	-155.687637
2616.284180	-156.019211
2621.667480	-156.307999
2627.050781	-156.634781
2632.434082	-156.950089
2637.817383	-157.222244
2643.200684	-157.453003
2648.583984	-157.742554
2653.967285	-158.006348
2659.350586	-158.125336
2664.733887	-158.451599
2670.117188	-158.683044
2675.500488	-158.872833
2680.883789	-159.012024
2686.267090	-159.199280
2691.650391	-159.353561
2697.033691	-159.429703
2702.416992	-159.502365
2707.800293	-159.630020
2713.183594	-159.604523
2718.566895	-159.638168
2723.950195	-159.668137
2729.333496	-159.562790
2734.716797	-159.498764
2740.100098	-159.369003
2745.483398	-159.234283
2750.866699	-159.011368
2756.250000	-158.830017
2761.633301	-158.603729
2767.016602	-158.276260
2772.399902	-158.008194
2777.783203	-157.692245
2783.166504	-157.337051
2788.549805	-156.954498
2793.933105	-156.545715
2799.316406	-156.136459
2804.699707	-155.721039
2810.083008	-155.206345
2815.466309	-154.736923
2820.849609	-154.241714
2826.232910	-153.721359
2831.616211	-153.185806
2836.999512	-152.627625
2842.382812	-152.065018
2847.766113	-151.481613
2853.149414	-150.887299
2858.532715	-150.227722
2863.916016	-149.571823
2869.299316	-148.917999
2874.682617	-148.253357
2880.065918	-147.545471
2885.449219	-146.819305
2890.832520	-146.066635
2896.215820	-145.314362
2901.599121	-144.530823
2906.982422	-143.717270
2912.365723	-142.890228
2917.749023	-142.020325
2923.132324	-141.116928
2928.515625	-140.196716
2933.898926	-139.238525
2939.282227	-138.245270
2944.665527	-137.214569
2950.048828	-136.141159
2955.432129	-135.025314
2960.815430	-133.853455
2966.198730	-132.633499
2971.582031	-131.359314
2976.965332	-130.010712
2982.348633	-128.595154
2987.731934	-127.101059
2993.115234	-125.516220
2998.498535	-123.829788
3003.881836	-122.029877
3009.265137	-120.095459
3014.648438	-118.010857
3020.031738	-115.741005
3025.415039	-113.004395
3030.798340	-110.133804
3036.181641	-107.437767
3041.564941	-103.993790
3046.948242	-99.985626
3052.331543	-95.237068
3057.714844	-89.397415
3063.098145	-81.771179
3068.481445	-70.552536
3073.864746	-43.490398
3079.248047	-35.580910
3084.631348	-39.834778
3090.014648	-66.028030
3095.397949	-79.054329
3100.781250	-87.382103
3106.164551	-93.598343
3111.547852	-98.578865
3116.931152	-102.732147
3122.314453	-104.991951
3127.697754	-97.829987
3133.081055	-98.804192
3138.464355	-111.627594
3143.847656	-116.854378
3149.230957	-119.122101
3154.614258	-121.094101
3159.997559	-122.909729
3165.380859	-124.600342
3170.764160	-126.184532
3176.147461	-127.678741
3181.530762	-129.086746
3186.914062	-130.419495
3192.297363	-131.700104
3197.680664	-132.896194
3203.063965	-134.056549
3208.447266	-135.155487
3213.830566	-136.213486
3219.213867	-137.228577
3224.597168	-138.204346
3229.980469	-139.146973
3235.363770	-140.055878
3240.747070	-140.915512
3246.130371	-141.770050
3251.513672	-142.599457
3256.896973	-143.384964
3262.280273	-144.139282
3267.663574	-144.893982
3273.046875	-145.619125
3278.430176	-146.321060
3283.813477	-146.998886
3289.196777	-147.675400
3294.580078	-148.318497
3299.963379	-148.938919
3305.346680	-149.562561
3310.729980	-150.170837
3316.113281	-150.751343
3321.496582	-151.317398
3326.879883	-151.859650
3332.263184	-152.422729
3337.646484	-152.950043
3343.029785	-153.440048
3348.413086	-153.934036
3353.796387	-154.453308
3359.179688	-154.954498
3364.562988	-155.388138
3369.946289	-155.813797
3375.329590	-156.316910
3380.712891	-156.757980
3386.096191	-157.134140
3391.479492	-157.585220
3396.862793	-157.977280
3402.246094	-158.399963
3407.629395	-158.726700
3413.012695	-159.100021
3418.395996	-159.443268
3423.779297	-159.801636
3429.162598	-160.062576
3434.545898	-160.329117
3439.929199	-160.633209
3445.312500	-160.911713
3450.695801	-161.120987
3456.079102	-161.368454
3461.462402	-161.583740
3466.845703	-161.731216
3472.229004	-161.961456
3477.612305	-162.037399
3482.995605	-162.102020
3488.378906	-162.279541
3493.762207	-162.279129
3499.145508	-162.264328
3504.528809	-162.279236
3509.912109	-162.313431
3515.295410	-162.216904
3520.678711	-162.130768
3526.062012	-162.067200
3531.445312	-161.955032
3536.828613	-161.728638
3542.211914	-161.609283
3547.595215	-161.434464
3552.978516	-161.228119
3558.361816	-161.005753
3563.745117	-160.774033
3569.128418	-160.483276
3574.511719	-160.263824
3579.895020	-159.893646
3585.278320	-159.619049
3590.661621	-159.310135
3596.044922	-158.966614
3601.428223	-158.668945
3606.811523	-158.252182
3612.194824	-157.909317
3617.578125	-157.558228
3622.961426	-157.117432
3628.344727	-156.757904
3633.728027	-156.337143
3639.111328	-155.926010
3644.494629	-155.494217
3649.877930	-155.073013
3655.261230	-154.618622
3660.644531	-154.178146
3666.027832	-153.713745
3671.411133	-153.240891
3676.794434	-152.733871
3682.177734	-152.262344
3687.561035	-151.766953
3692.944336	-151.240158
3698.327637	-150.729767
3703.710938	-150.182831
3709.094238	-149.644592
3714.477539	-149.064850
3719.860840	-148.492203
3725.244141	-147.910538
3730.627441	-147.317230
3736.010742	-146.695770
3741.394043	-146.078964
3746.777344	-145.415009
3752.160645	-144.749191
3757.543945	-144.072662
3762.927246	-143.377365
3768.310547	-142.650742
3773.693848	-141.913895
3779.077148	-141.153488
3784.460449	-140.371994
3789.843750	-139.550156
3795.227051	-138.716965
3800.610352	-137.858994
3805.993652	-136.964615
3811.376953	-136.035706
3816.760254	-135.075058
3822.143555	-134.079285
3827.526855	-133.044312
3832.910156	-131.961014
3838.293457	-130.835968
3843.676758	-129.657639
3849.060059	-128.422638
3854.443359	-127.128761
3859.826660	-125.762825
3865.209961	-124.321793
3870.593262	-122.798691
3875.976562	-121.177750
3881.359863	-119.449341
3886.743164	-117.597977
3892.126465	-115.603882
3897.509766	-113.443558
3902.893066	-111.071930
3908.276367	-108.381897
3913.659668	-105.578026
3919.042969	-102.355598
3924.426270	-98.636757
3929.809570	-94.283989
3935.192871	-89.030388
3940.576172	-82.382851
3945.959473	-73.240860
3951.342773	-57.775936
3956.726074	-41.323093
3962.109375	-40.068893
3967.492676	-51.955944
3972.875977	-70.708542
3978.259277	-80.692566
3983.642578	-87.755241
3989.025879	-93.261574
3994.409180	-97.786255
3999.792480	-101.622131
4005.175781	-97.585350
4010.559082	-93.636543
4015.942383	-100.708763
4021.325684	-112.925140
4026.708984	-115.198242
4032.092285	-117.238373
4037.475586	-119.127167
4042.858887	-120.885048
4048.242188	-122.532860
4053.625488	-124.080994
4059.008789	-125.544930
4064.392090	-126.930008
4069.775391	-128.242706
4075.158691	-129.489700
4080.541992	-130.691208
4085.925293	-131.832474
4091.308594	-132.930176
4096.691895	-133.977325
4102.075195	-134.986526
4107.458496	-135.961349
4112.841797	-136.899399
4118.225098	-137.807190
4123.608398	-138.673645
4128.991699	-139.523682
4134.375000	-140.351562
4139.758301	-141.139145
4145.141602	-141.907791
4150.524902	-142.665527
4155.908203	-143.393860
4161.291504	-144.100418
4166.674805	-144.786591
4172.058105	-145.459427
4177.441406	-146.127243
4182.824707	-146.757355
4188.208008	-147.394226
4193.591309	-148.013290
4198.974609	-148.578979
4204.357910	-149.181519
4209.741211	-149.726471
4215.124512	-150.306992
4220.507812	-150.852036
4225.891113	-151.412430
4231.274414	-151.922821
4236.657715	-152.413498
4242.041016	-152.917206
4247.424316	-153.414780
4252.807617	-153.912704
4258.190918	-154.383423
4263.574219	-154.864899
4268.957520	-155.316086
4274.340820	-155.750366
4279.724121	-156.226151
4285.107422	-156.658966
4290.490723	-157.091248
4295.874023	-157.473984
4301.257324	-157.964890
4306.640625	-158.317474
4312.023926	-158.729446
4317.407227	-159.131699
4322.790527	-159.519806
4328.173828	-159.890518
4333.557129	-160.293060
4338.940430	-160.638397
4344.323730	-161.077759
4349.707031	-161.390945
4355.090332	-161.764557
4360.473633	-162.143433
4365.856934	-162.437317
4371.240234	-162.787476
4376.623535	-163.052536
4382.006836	-163.296173
4387.390137	-163.699524
4392.773438	-164.146957
4398.156738	-164.314117
4403.540039	-164.625000
4408.923340	-165.017166
4414.306641	-165.329056
4419.689941	-165.558212
4425.073242	-165.885544
4430.456543	-166.249084
4435.839844	-166.401764
4441.223145	-166.654800
4446.606445	-166.948639
4451.989746	-167.138016
4457.373047	-167.442307
4462.756348	-167.602722
4468.139648	-167.743027
4473.522949	-168.048950
4478.906250	-168.209885
4484.289551	-168.362091
4489.672852	-168.502304
4495.056152	-168.741821
4500.439453	-168.736038
4505.822754	-168.893570
4511.206055	-168.857819
4516.589355	-168.911240
4521.972656	-168.971924
4527.355957	-168.958023
4532.739258	-168.849991
4538.122559	-168.553513
4543.505859	-168.563232
